"Time (s)","Magnetic field x (µT)","Magnetic field y (µT)","Magnetic field z (µT)"
1.307513540E-1,1.517679977E1,-4.029660034E1,-3.853979874E1
1.807513540E-1,1.406659985E1,-4.015019989E1,-3.874720001E1
2.307513540E-1,1.293200016E1,-3.995499802E1,-3.929619980E1
2.807513540E-1,1.209019947E1,-3.969879913E1,-3.969879913E1
3.307513540E-1,1.151679993E1,-3.956459808E1,-3.994279861E1
3.807513540E-1,1.100440025E1,-3.936940002E1,-4.017459869E1
4.307504160E-1,1.062619972E1,-3.928400040E1,-4.035759735E1
4.807504160E-1,1.026019955E1,-3.919860077E1,-4.055279922E1
5.307504160E-1,8.930399895E0,-3.896680069E1,-4.105299759E1
5.807504160E-1,7.344399929E0,-3.864960098E1,-4.155319977E1
6.307504160E-1,5.404599667E0,-3.803960037E1,-4.191920090E1
6.807504160E-1,2.854799986E0,-3.697819901E1,-4.235839844E1
7.307504160E-1,-6.222000122E-1,-3.513599777E1,-4.284639740E1
7.807504160E-1,-4.562799931E0,-3.268379974E1,-4.328559875E1
8.307504160E-1,-9.015799522E0,-2.935319901E1,-4.357839966E1
8.807504160E-1,-1.395679951E1,-2.530279922E1,-4.356620026E1
9.307504160E-1,-1.892219925E1,-2.064239883E1,-4.321239853E1
9.807504160E-1,-2.397299957E1,-1.531099987E1,-4.218759918E1
1.030750416E0,-2.904819870E1,-1.010159969E1,-4.039419937E1
1.080750416E0,-3.386719894E1,-5.416800022E0,-3.792979813E1
1.130750416E0,-3.795420074E1,-1.354200006E0,-3.501399994E1
1.180750416E0,-4.160199738E1,2.220399857E0,-3.200059891E1
1.230750416E0,-4.457880020E1,5.404599667E0,-2.927999878E1
1.280750416E0,-4.670159912E1,8.198399544E0,-2.714499855E1
1.330750156E0,-4.805579758E1,1.066279984E1,-2.563220024E1
1.380750156E0,-4.849499893E1,1.267579937E1,-2.488799858E1
1.430750156E0,-4.806800079E1,1.500599957E1,-2.492459869E1
1.480750156E0,-4.707979965E1,1.767779922E1,-2.540040016E1
1.530750156E0,-4.581100082E1,2.047159958E1,-2.626659966E1
1.580750156E0,-4.434700012E1,2.339959908E1,-2.708399963E1
1.630750156E0,-4.267559814E1,2.613239861E1,-2.773060036E1
1.680750156E0,-4.094319916E1,2.869439888E1,-2.823079872E1
1.730750156E0,-3.927180099E1,3.107339859E1,-2.851140022E1
1.780750156E0,-3.788100052E1,3.314739990E1,-2.854800034E1
1.830750156E0,-3.689279938E1,3.469680023E1,-2.835280037E1
1.880750156E0,-3.594120026E1,3.596559906E1,-2.816979980E1
1.930750156E0,-3.492860031E1,3.711240005E1,-2.803559875E1
1.980750156E0,-3.387939835E1,3.794199753E1,-2.812100029E1
2.030750156E0,-3.320840073E1,3.850320053E1,-2.819419861E1
2.080750156E0,-3.276919937E1,3.883259964E1,-2.814539909E1
2.130750156E0,-3.234220123E1,3.883259964E1,-2.843820000E1
2.180750156E0,-3.137839890E1,3.860079956E1,-2.920679855E1
2.230750156E0,-3.021939850E1,3.836899948E1,-3.013399887E1
2.280750156E0,-2.857239914E1,3.829579926E1,-3.109779930E1
2.330750156E0,-2.608359909E1,3.839339828E1,-3.200059891E1
2.380750156E0,-2.355819893E1,3.836899948E1,-3.293999863E1
2.430750156E0,-2.097179985E1,3.836899948E1,-3.390380096E1
2.480750156E0,-1.844639969E1,3.834460068E1,-3.477000046E1
2.530750156E0,-1.605520058E1,3.850320053E1,-3.531900024E1
2.580750156E0,-1.402999973E1,3.880820084E1,-3.542879868E1
2.630750156E0,-1.202919960E1,3.904000092E1,-3.562400055E1
2.680750156E0,-1.047980022E1,3.901559830E1,-3.590459824E1
2.730750156E0,-9.869799614E0,3.861299896E1,-3.612419891E1
2.780750156E0,-9.259799957E0,3.835680008E1,-3.641699982E1
2.830750156E0,-8.759599686E0,3.817379761E1,-3.655120087E1
2.880750156E0,-8.649800301E0,3.799079895E1,-3.672200012E1
2.930750156E0,-8.954799652E0,3.763700104E1,-3.683179855E1
2.980750156E0,-9.430600166E0,3.723439789E1,-3.695380020E1
3.030750156E0,-9.833199501E0,3.688059998E1,-3.717340088E1
3.080750156E0,-1.021140003E1,3.631940079E1,-3.741740036E1
3.130750156E0,-1.056519985E1,3.581919861E1,-3.774679947E1
3.180750156E0,-1.100440025E1,3.518479919E1,-3.792979813E1
3.230750156E0,-1.132159996E1,3.447719955E1,-3.824699783E1
3.280750156E0,-1.119960022E1,3.395259857E1,-3.846659851E1
3.330750156E0,-1.078479958E1,3.379399872E1,-3.843000031E1
3.380750156E0,-1.038220024E1,3.392819977E1,-3.819820023E1
3.430750156E0,-1.002839947E1,3.429420090E1,-3.753939819E1
3.480750156E0,-9.869799614E0,3.500180054E1,-3.661219788E1
3.530750156E0,-9.894199371E0,3.585580063E1,-3.558739853E1
3.580750156E0,-1.012599945E1,3.677079773E1,-3.440399933E1
3.630750156E0,-1.046759987E1,3.763700104E1,-3.324499893E1
3.680750156E0,-1.102880001E1,3.839339828E1,-3.217139816E1
3.730750156E0,-1.159000015E1,3.907659912E1,-3.121979904E1
3.780750156E0,-1.210239983E1,3.967440033E1,-3.042679977E1
3.830750156E0,-1.263920021E1,4.005260086E1,-2.993879890E1
3.880750156E0,-1.309060001E1,4.034539795E1,-2.962159920E1
3.930750156E0,-1.343219948E1,4.054059982E1,-2.918239975E1
3.980750156E0,-1.363959980E1,4.079679871E1,-2.877979851E1
4.030750156E0,-1.371280003E1,4.112619781E1,-2.832839966E1
4.080750156E0,-1.360299969E1,4.144339752E1,-2.782819939E1
4.130750156E0,-1.349319935E1,4.178499985E1,-2.737679863E1
4.180750156E0,-1.344439983E1,4.191920090E1,-2.694979858E1
4.230750156E0,-1.346879959E1,4.211439896E1,-2.640079880E1
4.280750156E0,-1.345660019E1,4.229739761E1,-2.588839912E1
4.330750156E0,-1.345660019E1,4.251699829E1,-2.543700027E1
4.380750156E0,-1.344439983E1,4.276099777E1,-2.492459869E1
4.430750156E0,-1.343219948E1,4.304159927E1,-2.430239868E1
4.480750156E0,-1.349319935E1,4.337099838E1,-2.353380013E1
4.530750156E0,-1.360299969E1,4.373699951E1,-2.263099861E1
4.580750156E0,-1.365180016E1,4.424939728E1,-2.135000038E1
4.630750156E0,-1.350539970E1,4.484719849E1,-2.004459953E1
4.680750156E0,-1.320039940E1,4.544499969E1,-1.844639969E1
4.730750156E0,-1.271239948E1,4.609159851E1,-1.687260056E1
4.780750156E0,-1.207800007E1,4.667720032E1,-1.546959972E1
4.830750156E0,-1.171199989E1,4.706760025E1,-1.451799965E1
4.880750156E0,-1.155340004E1,4.728720093E1,-1.427400017E1
4.930750156E0,-1.194379997E1,4.699440002E1,-1.478639984E1
4.980750156E0,-1.279780006E1,4.618919754E1,-1.617720032E1
5.030750156E0,-1.417640018E1,4.452999878E1,-1.851959991E1
5.080750156E0,-1.609179878E1,4.212659836E1,-2.163059998E1
5.130750156E0,-1.837319946E1,3.905220032E1,-2.516860008E1
5.180750156E0,-2.084980011E1,3.547760010E1,-2.881639862E1
5.230750050E0,-2.313119888E1,3.180539894E1,-3.229339981E1
5.280750050E0,-2.522959900E1,2.815760040E1,-3.522140121E1
5.330750050E0,-2.680340004E1,2.490019989E1,-3.755159760E1
5.380750050E0,-2.792580032E1,2.213080025E1,-3.941819763E1
5.430750050E0,-2.856019974E1,2.014220047E1,-4.047959900E1
5.480750050E0,-2.869439888E1,1.892219925E1,-4.118719864E1
5.530750050E0,-2.838939857E1,1.839760017E1,-4.168740082E1
5.580750050E0,-2.784039879E1,1.839760017E1,-4.205339813E1
5.630750050E0,-2.718159866E1,1.854399872E1,-4.240719986E1
5.680750050E0,-2.633979988E1,1.858059883E1,-4.293180084E1
5.730750050E0,-2.532719994E1,1.837319946E1,-4.361499786E1
5.780750050E0,-2.422920036E1,1.777540016E1,-4.442020035E1
5.830750050E0,-2.310680008E1,1.678719902E1,-4.529859924E1
5.880750050E0,-2.208199883E1,1.529879951E1,-4.616479874E1
5.930750050E0,-2.127680016E1,1.329799938E1,-4.700659943E1
5.980750050E0,-2.063019943E1,1.089459991E1,-4.790940094E1
6.030750050E0,-1.987380028E1,8.100799561E0,-4.883659744E1
6.080750050E0,-1.916619873E1,5.404599667E0,-4.958079910E1
6.130750050E0,-1.864159966E1,2.891399860E0,-5.019079971E1
6.180750050E0,-1.822679901E1,9.027999640E-1,-5.054459763E1
6.230750050E0,-1.794619942E1,-2.928000093E-1,-5.083739853E1
6.280750050E0,-1.792179871E1,-3.659999967E-1,-5.088619995E1
6.330750050E0,-1.783639908E1,3.537999988E-1,-5.083739853E1
6.380750050E0,-1.770219994E1,1.866599917E0,-5.059339905E1
6.430750050E0,-1.777540016E1,4.428599834E0,-4.998339844E1
6.480750050E0,-1.790959930E1,7.429800034E0,-4.934899902E1
6.530750050E0,-1.782419968E1,1.088239956E1,-4.847060013E1
6.580750050E0,-1.766559982E1,1.450579929E1,-4.747019958E1
6.630750050E0,-1.732399940E1,1.809259987E1,-4.623799896E1
6.680750050E0,-9.015799522E0,2.106939888E1,-4.540839767E1
6.730750050E0,-8.356999397E0,2.404619980E1,-4.404199982E1
6.780750050E0,-7.832399845E0,2.684000015E1,-4.259019852E1
6.830750050E0,-7.356599808E0,2.917020035E1,-4.118719864E1
6.880750050E0,-6.892999649E0,3.126859856E1,-3.977199936E1
6.930750050E0,-6.746599674E0,3.269599915E1,-3.860079956E1
6.980750050E0,-6.868599892E0,3.365979767E1,-3.796640015E1
7.030750050E0,-7.258999825E0,3.392819977E1,-3.774679947E1
7.080750050E0,-7.795799732E0,3.369639969E1,-3.784439850E1
7.130750050E0,-8.491199493E0,3.296440125E1,-3.811280060E1
7.180750050E0,-9.210999489E0,3.184199905E1,-3.867399979E1
7.230750050E0,-1.001620007E1,3.031699944E1,-3.949139786E1
7.280750050E0,-1.078479958E1,2.840159988E1,-4.061380005E1
7.330750050E0,-1.139480019E1,2.619339943E1,-4.145560074E1
7.380750050E0,-1.173639965E1,2.393639946E1,-4.240719986E1
7.430750050E0,-1.183399963E1,2.158180046E1,-4.339540100E1
7.480750050E0,-1.184619999E1,1.914179993E1,-4.433480072E1
7.530750050E0,-1.163879967E1,1.664080048E1,-4.556699753E1
7.580750050E0,-1.121179962E1,1.390799999E1,-4.657959747E1
7.630750050E0,-1.058959961E1,1.094339943E1,-4.759219742E1
7.680750050E0,-1.002839947E1,7.881199837E0,-4.842179871E1
7.730750050E0,-9.454999924E0,4.867799759E0,-4.894639969E1
7.780750050E0,-9.174399376E0,2.232599974E0,-4.947100067E1
7.830750050E0,-9.003600121E0,-2.439999953E-2,-4.972719955E1
7.880750050E0,-8.783999443E0,-1.707999945E0,-5.010540009E1
7.930750050E0,-8.686399460E0,-2.488800049E0,-5.022739792E1
7.980750050E0,-8.698599815E0,-2.208199978E0,-5.023959732E1
8.030750050E0,-8.722999573E0,-8.417999744E-1,-5.012979889E1
8.080750050E0,-8.686399460E0,1.463999987E0,-4.983699799E1
8.130750050E0,-8.491199493E0,4.477399826E0,-4.934899902E1
8.180750050E0,-8.271599770E0,8.210599899E0,-4.858039856E1
8.230750050E0,-7.917799950E0,1.232199955E1,-4.761660004E1
8.280750050E0,-7.637199879E0,1.651879883E1,-4.626239777E1
8.330750050E0,-7.466399670E0,2.067899895E1,-4.473740005E1
8.380750050E0,-7.319999695E0,2.416819954E1,-4.317580032E1
8.430750050E0,-7.149199963E0,2.691320038E1,-4.178499985E1
8.480750050E0,-7.100399971E0,2.893840027E1,-4.072359848E1
8.530750050E0,-7.185800076E0,3.009739876E1,-4.004039764E1
8.580750050E0,-7.283400059E0,3.062199974E1,-3.975979996E1
8.630750050E0,-7.478600025E0,3.035359955E1,-3.989400101E1
8.680750050E0,-7.807999611E0,2.957279968E1,-4.036980057E1
8.730750050E0,-8.149600029E0,2.819419861E1,-4.121159744E1
8.780750050E0,-8.479000092E0,2.637639999E1,-4.226079941E1
8.830750050E0,-8.930399895E0,2.433899879E1,-4.324900055E1
8.880750050E0,-9.137800217E0,2.192339897E1,-4.431039810E1
8.930750050E0,-8.893799782E0,1.903199959E1,-4.523759842E1
8.980750050E0,-8.515600204E0,1.572579956E1,-4.636000061E1
9.030750050E0,-8.076399803E0,1.213899994E1,-4.736039734E1
9.080750050E0,-7.612799644E0,8.344799995E0,-4.816559982E1
9.130750050E0,-7.271199703E0,4.904399872E0,-4.901959991E1
9.180750050E0,-6.905200005E0,1.537199974E0,-4.950759888E1
9.230750050E0,-6.551399708E0,-1.305400014E0,-4.998339844E1
9.280750050E0,-6.392799854E0,-3.147599936E0,-5.031279755E1
9.330750050E0,-6.563600063E0,-3.781999826E0,-5.039819717E1
9.380750050E0,-7.063799858E0,-2.952399969E0,-5.017860031E1
9.430750050E0,-7.576200008E0,-8.173999786E-1,-4.970280075E1
9.480750050E0,-7.856800079E0,2.440000057E0,-4.911719894E1
9.530750050E0,-7.954400063E0,6.490399837E0,-4.779959869E1
9.580750050E0,-7.576200008E0,1.083360004E1,-4.700659943E1
9.630750050E0,-7.124799728E0,1.545739937E1,-4.585979843E1
9.680750050E0,-6.734399796E0,1.993479919E1,-4.432259750E1
9.730750050E0,-6.270800114E0,2.388759995E1,-4.293180084E1
9.780750050E0,-5.770599842E0,2.692539978E1,-4.180939865E1
9.830750050E0,-5.502200127E0,2.909700012E1,-4.089439774E1
9.880750050E0,-5.526599884E0,3.040239906E1,-4.024779892E1
9.930750050E0,-5.782799721E0,3.097579956E1,-3.986959839E1
9.980750050E0,-6.466000080E0,3.068299866E1,-3.988179779E1
1.003075005E1,-7.319999695E0,2.949959946E1,-4.035759735E1
1.008075005E1,-8.198399544E0,2.762080002E1,-4.121159744E1
1.013075005E1,-9.198800087E0,2.493680000E1,-4.207780075E1
1.018075005E1,-9.747799873E0,2.211859894E1,-4.321239853E1
1.023075005E1,-9.991799355E0,1.869039917E1,-4.452999878E1
1.028075005E1,-9.955200195E0,1.468879986E1,-4.589640045E1
1.033075005E1,-9.808799744E0,1.033339977E1,-4.749459839E1
1.038075005E1,-9.430600166E0,5.953599930E0,-4.839739990E1
1.043075005E1,-8.906000137E0,1.915399909E0,-4.917819977E1
1.048075005E1,-8.381400108E0,-1.500599980E0,-4.984919739E1
1.053075005E1,-8.003199577E0,-4.038199902E0,-5.031279755E1
1.058075005E1,-7.759199619E0,-5.453399658E0,-5.055680084E1
1.063075005E1,-7.844599724E0,-5.404599667E0,-5.049580002E1
1.068075005E1,-8.112999916E0,-3.891799927E0,-5.026399994E1
1.073075005E1,-8.356999397E0,-9.759999514E-1,-4.984919739E1
1.078075005E1,-8.479000092E0,2.842599869E0,-4.932460022E1
1.083075005E1,-8.344799995E0,7.332200050E0,-4.853160095E1
1.088075005E1,-8.149600029E0,1.211460018E1,-4.743359756E1
1.093075005E1,-7.905600071E0,1.694579887E1,-4.568899918E1
1.098075005E1,-7.600599766E0,2.113039970E1,-4.440800095E1
1.103075005E1,-7.161399841E0,2.441219902E1,-4.337099838E1
1.108075005E1,-6.917399883E0,2.679119873E1,-4.250479889E1
1.113075005E1,-6.819799900E0,2.821859932E1,-4.190699768E1
1.118075005E1,-6.953999996E0,2.884079933E1,-4.157759857E1
1.123075005E1,-7.502999783E0,2.840159988E1,-4.168740082E1
1.128075005E1,-8.210599899E0,2.694979858E1,-4.222419739E1
1.133075005E1,-8.954799652E0,2.458300018E1,-4.296839905E1
1.138075005E1,-9.259799957E0,2.170380020E1,-4.415179825E1
1.143075005E1,-9.296400070E0,1.848299980E1,-4.540839767E1
1.148075005E1,-8.832799911E0,1.483519936E1,-4.659180069E1
1.153075005E1,-8.418000221E0,1.087020016E1,-4.777519989E1
1.158075005E1,-7.966599941E0,6.624599934E0,-4.873899841E1
1.163075005E1,-7.283400059E0,2.696199894E0,-4.948320007E1
1.168075005E1,-6.453799725E0,-7.075999975E-1,-5.002000046E1
1.173075005E1,-5.782799721E0,-3.147599936E0,-5.027619934E1
1.178075005E1,-5.551000118E0,-4.526199818E0,-5.036159897E1
1.183075005E1,-5.611999989E0,-4.635999680E0,-5.020299911E1
1.188075005E1,-5.868199825E0,-3.440399885E0,-4.989799881E1
1.193075005E1,-5.977999687E0,-8.661999702E-1,-4.937339783E1
1.198075005E1,-5.709599972E0,2.818199873E0,-4.873899841E1
1.203075005E1,-5.270400047E0,7.185800076E0,-4.792160034E1
1.208075005E1,-4.697000027E0,1.200479984E1,-4.688459778E1
1.213075005E1,-4.086999893E0,1.664080048E1,-4.571339798E1
1.218075005E1,-3.306200027E0,2.095960045E1,-4.413959885E1
1.223075005E1,-2.635200024E0,2.435120010E1,-4.298059845E1
1.228075005E1,-2.086199999E0,2.696199989E1,-4.201679993E1
1.233075005E1,-1.768999934E0,2.845039940E1,-4.137019730E1
1.238075005E1,-1.720199943E0,2.895059967E1,-4.110179901E1
1.243075005E1,-2.061800003E0,2.849919891E1,-4.121159744E1
1.248075005E1,-2.635200024E0,2.716939926E1,-4.178499985E1
1.253075005E1,-3.208600044E0,2.515639877E1,-4.279759979E1
1.258075005E1,-3.733199835E0,2.222839928E1,-4.401760101E1
1.263075005E1,-4.099199772E0,1.872699928E1,-4.532299805E1
1.268075005E1,-3.977200031E0,1.421299934E1,-4.615259933E1
1.273075005E1,-4.099199772E0,9.735599518E0,-4.726279831E1
1.278075005E1,-4.294399738E0,5.477799892E0,-4.816559982E1
1.283075005E1,-4.440799713E0,1.732399940E0,-4.886100006E1
1.288075005E1,-4.574999809E0,-1.317600012E0,-4.934899902E1
1.293075005E1,-4.757999897E0,-3.379400015E0,-4.954420090E1
1.298075005E1,-5.062999725E0,-3.879599810E0,-4.954420090E1
1.303075005E1,-5.392399788E0,-2.976799965E0,-4.934899902E1
1.308075005E1,-5.660799980E0,-4.513999820E-1,-4.889759827E1
1.313075005E1,-5.746200085E0,3.184200048E0,-4.827539825E1
1.318075005E1,-5.733999729E0,7.539599895E0,-4.678699875E1
1.323075005E1,-5.368000031E0,1.230980015E1,-4.556699753E1
1.328075005E1,-5.014199734E0,1.703120041E1,-4.413959885E1
1.333075005E1,-4.587199688E0,2.113039970E1,-4.274879837E1
1.338075005E1,-4.196799755E0,2.457079887E1,-4.163859940E1
1.343075005E1,-4.050399780E0,2.685219955E1,-4.057719803E1
1.348075005E1,-4.172399998E0,2.812100029E1,-3.986959839E1
1.353075005E1,-4.550600052E0,2.834059906E1,-3.960120010E1
1.358075005E1,-5.355799675E0,2.746220016E1,-3.984519958E1
1.363075005E1,-6.307399750E0,2.564439964E1,-4.057719803E1
1.368075005E1,-7.027199745E0,2.296039963E1,-4.167519760E1
1.373075005E1,-7.661599636E0,1.980060005E1,-4.295619965E1
1.378075005E1,-7.734799862E0,1.625040054E1,-4.481060028E1
1.383075005E1,-7.637199879E0,1.196819973E1,-4.607939911E1
1.388075005E1,-7.454199791E0,7.539599895E0,-4.718959808E1
1.393075005E1,-7.295599937E0,3.464799881E0,-4.794599915E1
1.398075005E1,-7.112599850E0,3.050000072E-1,-4.903179932E1
1.403075005E1,-6.746599674E0,-1.903199911E0,-4.945879745E1
1.408075005E1,-6.526999950E0,-2.732800007E0,-4.961739731E1
1.413075005E1,-6.404999733E0,-2.281399965E0,-4.959299850E1
1.418075005E1,-6.441599846E0,-3.294000030E-1,-4.873899841E1
1.423075005E1,-6.343999863E0,2.988999844E0,-4.809239960E1
1.428075005E1,-6.075599670E0,7.344399929E0,-4.717739868E1
1.433075005E1,-5.599800110E0,1.232199955E1,-4.609159851E1
1.438075005E1,-5.111799717E0,1.723859978E1,-4.466419983E1
1.443075005E1,-4.672599792E0,2.167939949E1,-4.324900055E1
1.448075005E1,-4.245599747E0,2.518079948E1,-4.196799850E1
1.453075005E1,-4.013800144E0,2.763299942E1,-4.082119751E1
1.458075005E1,-3.818599939E0,2.918239975E1,-4.045520020E1
1.463075005E1,-4.184599876E0,2.960939980E1,-4.007699966E1
1.468075005E1,-5.001999855E0,2.902379990E1,-4.018679810E1
1.473075005E1,-6.002399921E0,2.743779945E1,-4.068700027E1
1.478075005E1,-6.892999649E0,2.480259895E1,-4.185820007E1
1.483075005E1,-7.637199879E0,2.136219978E1,-4.309040070E1
1.488075005E1,-8.039799690E0,1.727519989E1,-4.437139893E1
1.493075005E1,-7.893399715E0,1.276119995E1,-4.567679977E1
1.498075005E1,-7.673799992E0,8.210599899E0,-4.693339920E1
1.503075005E1,-7.417599678E0,3.842999935E0,-4.775079727E1
1.508075005E1,-7.002799988E0,2.439999878E-1,-4.844619751E1
1.513075005E1,-6.502599716E0,-2.317999840E0,-4.909280014E1
1.518075005E1,-6.051199913E0,-3.379400015E0,-4.953199768E1
1.523075005E1,-5.733999729E0,-2.976799965E0,-4.966619873E1
1.528075005E1,-5.526599884E0,-7.929999828E-1,-4.940999985E1
1.533075005E1,-5.380199909E0,2.830399990E0,-4.877560043E1
1.538075005E1,-5.148399830E0,7.393199921E0,-4.764099884E1
1.543075005E1,-4.733600140E0,1.259039974E1,-4.651860046E1
1.548075005E1,-4.367599964E0,1.761680031E1,-4.520100021E1
1.553075005E1,-4.062600136E0,2.203319931E1,-4.382239914E1
1.558075005E1,-3.794199944E0,2.558339882E1,-4.254140091E1
1.563075005E1,-3.659999847E0,2.815760040E1,-4.155319977E1
1.568075005E1,-3.781999826E0,2.947519875E1,-4.096759796E1
1.573075005E1,-4.343199730E0,2.973139954E1,-4.082119751E1
1.578075005E1,-5.233799934E0,2.884079933E1,-4.130920029E1
1.583075005E1,-6.185400009E0,2.677899933E1,-4.224860001E1
1.588075005E1,-6.953999996E0,2.377779961E1,-4.355400085E1
1.593075005E1,-7.368799686E0,2.004459953E1,-4.501799774E1
1.598075005E1,-7.588399887E0,1.568919945E1,-4.614039993E1
1.603075005E1,-7.332200050E0,1.099219990E1,-4.738479996E1
1.608075093E1,-6.966199875E0,6.246399879E0,-4.840959930E1
1.613075093E1,-6.514800072E0,1.805599928E0,-4.919039917E1
1.618075093E1,-5.965799809E0,-1.842199922E0,-4.934899902E1
1.623075093E1,-5.611999989E0,-4.160200119E0,-4.972719955E1
1.628075093E1,-5.343599796E0,-4.770199776E0,-4.977599716E1
1.633075093E1,-5.294799805E0,-3.794199944E0,-4.954420090E1
1.638075093E1,-5.441199780E0,-1.268800020E0,-4.847060013E1
1.643075093E1,-5.428999901E0,2.659600019E0,-4.765319824E1
1.648075093E1,-5.294799805E0,7.515199661E0,-4.659180069E1
1.653075093E1,-5.197199821E0,1.290759945E1,-4.524979782E1
1.658075093E1,-4.989799976E0,1.809259987E1,-4.422499847E1
1.663075093E1,-4.697000027E0,2.252120018E1,-4.277320099E1
1.668075093E1,-4.513999939E0,2.581519890E1,-4.160199738E1
1.673075093E1,-4.379799843E0,2.803559875E1,-4.082119751E1
1.678075093E1,-4.416399956E0,2.897500038E1,-4.034539795E1
1.683075093E1,-4.733600140E0,2.886520004E1,-4.032099915E1
1.688075093E1,-5.270400047E0,2.749880028E1,-4.088219833E1
1.693075093E1,-5.855999947E0,2.505879974E1,-4.193140030E1
1.698075093E1,-6.441599846E0,2.171599960E1,-4.301720047E1
1.703075093E1,-6.612400055E0,1.765340042E1,-4.444459915E1
1.708075093E1,-6.441599846E0,1.310279942E1,-4.578659821E1
1.713075093E1,-6.234200001E0,8.259399414E0,-4.687239838E1
