"Time (s)","Magnetic field x (µT)","Magnetic field y (µT)","Magnetic field z (µT)"
1.035214660E-1,3.525799990E0,-3.740520096E1,-3.896680069E1
1.535214660E-1,3.745399952E0,-3.756380081E1,-3.907659912E1
2.035214660E-1,3.867399931E0,-3.740520096E1,-3.918639755E1
2.535214660E-1,3.720999956E0,-3.712459946E1,-3.933279800E1
3.035214660E-1,3.659999847E0,-3.656340027E1,-3.975979996E1
3.535214660E-1,3.611199856E0,-3.613639832E1,-4.017459869E1
4.035219800E-1,3.537999868E0,-3.602659988E1,-4.029660034E1
4.535219800E-1,3.452600002E0,-3.609980011E1,-4.019899750E1
5.035219800E-1,3.355000019E0,-3.606319809E1,-4.021120071E1
5.535219800E-1,3.147599936E0,-3.608760071E1,-4.011359787E1
6.035219800E-1,2.744999886E0,-3.625839996E1,-3.986959839E1
6.535219800E-1,2.110599995E0,-3.656340027E1,-3.932059860E1
7.035219800E-1,1.049199939E0,-3.701480103E1,-3.839339828E1
7.535219800E-1,-2.683999836E-1,-3.758819962E1,-3.722219849E1
8.035219800E-1,-1.354200006E0,-3.814939880E1,-3.598999786E1
8.535219800E-1,-2.037400007E0,-3.874720001E1,-3.496519852E1
9.035219800E-1,-2.671799898E0,-3.927180099E1,-3.406240082E1
9.535219800E-1,-3.611199856E0,-3.940599823E1,-3.345240021E1
1.003521980E0,-4.782400131E0,-3.897900009E1,-3.315959930E1
1.053521980E0,-6.624599934E0,-3.747840118E1,-3.314739990E1
1.103521980E0,-9.064599991E0,-3.485540009E1,-3.300099945E1
1.153521980E0,-1.209019947E1,-3.113439941E1,-3.241539764E1
1.203521980E0,-1.595759964E1,-2.622999954E1,-3.145159912E1
1.253521980E0,-2.048379898E1,-2.032519913E1,-3.013399887E1
1.303521980E0,-2.509539986E1,-1.376159954E1,-2.864559937E1
1.353521980E0,-2.929220009E1,-7.197999954E0,-2.703520012E1
1.403521980E0,-3.285459900E1,-7.319999933E-1,-2.559560013E1
1.453521980E0,-3.512379837E1,4.770199776E0,-2.447319984E1
1.503521198E0,-3.627059937E1,9.027999878E0,-2.372900009E1
1.553521198E0,-3.642919922E1,1.234639931E1,-2.381439972E1
1.603521198E0,-3.577040100E1,1.481079960E1,-2.458300018E1
1.653521198E0,-3.458699799E1,1.670179939E1,-2.587619972E1
1.703521198E0,-3.313520050E1,1.808040047E1,-2.755979919E1
1.753521198E0,-3.156139946E1,1.889780045E1,-2.943859863E1
1.803521198E0,-3.026819992E1,1.911739922E1,-3.100020027E1
1.853521198E0,-2.915799904E1,1.943459892E1,-3.222019958E1
1.903521198E0,-2.816979980E1,2.008119965E1,-3.314739990E1
1.953521198E0,-2.755979919E1,2.091079903E1,-3.348899841E1
2.003521198E0,-2.716939926E1,2.205760002E1,-3.334259796E1
2.053521198E0,-2.698639870E1,2.341180038E1,-3.274480057E1
2.103521198E0,-2.687660027E1,2.505879974E1,-3.168339920E1
2.153521198E0,-2.669359970E1,2.740119934E1,-2.995100021E1
2.203521198E0,-2.624219894E1,3.050000000E1,-2.775499916E1
2.253521198E0,-2.558339882E1,3.378179932E1,-2.522959900E1
2.303521198E0,-2.455859947E1,3.711240005E1,-2.241139984E1
2.353521198E0,-2.328979874E1,4.022340012E1,-1.967860031E1
2.403521354E0,-2.213080025E1,4.272439957E1,-1.765340042E1
2.453521354E0,-2.111820030E1,4.449340057E1,-1.639679909E1
2.503521354E0,-2.025199890E1,4.546939850E1,-1.603079987E1
2.553521354E0,-1.873920059E1,4.565240097E1,-1.715320015E1
2.603521354E0,-1.553059959E1,4.510339737E1,-1.952000046E1
2.653521354E0,-1.179739952E1,4.393219757E1,-2.244799995E1
2.703521354E0,-8.515600204E0,4.206559753E1,-2.622999954E1
2.753521354E0,-5.184999943E0,4.016239929E1,-3.025599861E1
2.803521354E0,-1.537199974E0,3.880820084E1,-3.356219864E1
2.853521354E0,2.281399965E0,3.788100052E1,-3.619739914E1
2.903521354E0,6.307399750E0,3.706359863E1,-3.836899948E1
2.953521354E0,9.259799957E0,3.649020004E1,-3.946699905E1
3.003521354E0,1.052859974E1,3.640480042E1,-3.943040085E1
3.053521354E0,1.067500019E1,3.701480103E1,-3.871059799E1
3.103521354E0,1.035779953E1,3.833239746E1,-3.734420013E1
3.153521354E0,9.601399422E0,3.994279861E1,-3.548979950E1
3.203521354E0,8.454599380E0,4.135799789E1,-3.356219864E1
3.253521354E0,6.844199657E0,4.287080002E1,-3.130519867E1
3.303521354E0,4.867799759E0,4.479840088E1,-2.829179955E1
3.353521354E0,2.891399860E0,4.694559860E1,-2.457079887E1
3.403521354E0,6.832000017E-1,4.893420029E1,-2.059359932E1
3.453521354E0,-1.500599980E0,5.043479919E1,-1.695800018E1
3.503521354E0,-3.428200006E0,5.141079712E1,-1.438379955E1
3.553521354E0,-5.221600056E0,5.160599899E1,-1.346879959E1
3.603521354E0,-6.917399883E0,5.102039719E1,-1.390799999E1
3.653521354E0,-8.112999916E0,4.978820038E1,-1.548180008E1
3.703521354E0,-9.003600121E0,4.800699997E1,-1.801939964E1
3.753521354E0,-9.564800262E0,4.566460037E1,-2.170380020E1
3.803521354E0,-9.942999840E0,4.313919830E1,-2.613239861E1
3.853521354E0,-9.698999405E0,4.086999893E1,-3.058539963E1
3.903521354E0,-8.747400284E0,3.916199875E1,-3.401359940E1
3.953521354E0,-7.441999912E0,3.784439850E1,-3.636819839E1
4.003521354E0,-5.916999817E0,3.701480103E1,-3.792979813E1
4.053521354E0,-4.635999680E0,3.650239944E1,-3.888140106E1
4.103521354E0,-1.209019947E1,2.967039871E1,-3.999160004E1
4.153521354E0,-1.185839939E1,3.026819992E1,-3.956459808E1
4.203521354E0,-1.189499950E1,3.134179878E1,-3.852759933E1
4.253521354E0,-1.205359936E1,3.261059952E1,-3.706359863E1
4.303521354E0,-1.268799973E1,3.431859970E1,-3.535559845E1
4.353521354E0,-1.404220009E1,3.583139801E1,-3.269599915E1
4.403521561E0,-1.520119953E1,3.757600021E1,-2.963379860E1
4.453521561E0,-1.615279961E1,3.954019928E1,-2.636419868E1
4.503521561E0,-1.676280022E1,4.182159805E1,-2.187459946E1
4.553521561E0,-1.686039925E1,4.366379929E1,-1.787299919E1
4.603521561E0,-1.695800018E1,4.503020096E1,-1.482299995E1
4.653521561E0,-1.727519989E1,4.555479813E1,-1.362739944E1
4.703521561E0,-1.698239899E1,4.554259872E1,-1.406659985E1
4.753521353E0,-1.584779930E1,4.456660080E1,-1.618939972E1
4.803521353E0,-1.463999939E1,4.278540039E1,-1.932480049E1
4.853521353E0,-1.299300003E1,4.012580109E1,-2.358259964E1
4.903521353E0,-1.074819946E1,3.812500000E1,-2.952400017E1
4.953521353E0,-8.112999916E0,3.535559845E1,-3.450159836E1
5.003521353E0,-5.392399788E0,3.317179871E1,-3.857640076E1
5.053521353E0,-2.452199936E0,3.126859856E1,-4.129700089E1
5.103521353E0,4.147999883E-1,2.982899857E1,-4.259019852E1
5.153521353E0,2.500999928E0,2.885299873E1,-4.345639801E1
5.203521353E0,3.977200031E0,2.881639862E1,-4.348080063E1
5.253521353E0,4.209000111E0,3.007299995E1,-4.233399963E1
5.303521353E0,3.428200006E0,3.220800018E1,-4.049179840E1
5.353521353E0,1.842199922E0,3.440399933E1,-3.786880112E1
5.403521040E0,-2.683999836E-1,3.629499817E1,-3.508720016E1
5.453521040E0,-2.830399990E0,3.875939941E1,-3.195179939E1
5.503521040E0,-5.477799892E0,4.121159744E1,-2.788920021E1
5.553521040E0,-7.722599983E0,4.367599869E1,-2.332639885E1
5.603521040E0,-9.698999405E0,4.584759903E1,-1.887339973E1
5.653521040E0,-1.111419964E1,4.738479996E1,-1.517679977E1
5.703521040E0,-1.230980015E1,4.823880005E1,-1.317599964E1
5.753521040E0,-1.299300003E1,4.801919937E1,-1.339559937E1
5.803521040E0,-1.274899960E1,4.715299988E1,-1.505480003E1
5.853521040E0,-1.171199989E1,4.555479813E1,-1.801939964E1
5.903521040E0,-1.060179996E1,4.324900055E1,-2.210639954E1
5.953521040E0,-9.247599602E0,3.973539734E1,-2.657159996E1
6.003521040E0,-7.063799858E0,3.680739975E1,-3.158580017E1
6.053521040E0,-4.648200035E0,3.451379776E1,-3.592900085E1
6.103521040E0,-2.513200045E0,3.267160034E1,-3.883259964E1
6.153521040E0,2.439999878E-1,3.125639915E1,-4.063819885E1
6.203521040E0,2.781599998E0,2.995100021E1,-4.183379745E1
6.253521040E0,4.794600010E0,2.935319901E1,-4.206559753E1
6.303521040E0,6.051199913E0,2.981679916E1,-4.144339752E1
6.353521040E0,6.160999775E0,3.135400009E1,-3.991839981E1
6.403521040E0,5.575399876E0,3.312300110E1,-3.808839798E1
6.453521040E0,4.587199688E0,3.529459763E1,-3.644139862E1
6.503521040E0,3.171999931E0,3.680739975E1,-3.455039978E1
6.553521040E0,1.183400035E0,3.868619919E1,-3.201279831E1
6.603521040E0,-1.085799932E0,4.108959961E1,-2.857239914E1
6.653521040E0,-3.403800011E0,4.351739883E1,-2.470499992E1
6.703521040E0,-5.148399830E0,4.554259872E1,-2.114259911E1
6.753521040E0,-6.453799725E0,4.681139755E1,-1.849519920E1
6.803521040E0,-7.466399670E0,4.740919876E1,-1.758020020E1
6.853521040E0,-7.844599724E0,4.715299988E1,-1.809259987E1
6.903521144E0,-7.149199963E0,4.649419785E1,-1.939799881E1
6.953521144E0,-6.148799896E0,4.506679916E1,-2.182579994E1
7.003521144E0,-4.953199863E0,4.313919830E1,-2.514419937E1
7.053521144E0,-3.574599981E0,4.099200058E1,-2.908479881E1
7.103521144E0,-1.866599917E0,3.916199875E1,-3.290340042E1
7.153521144E0,-9.759999812E-2,3.775899887E1,-3.556299973E1
7.203521144E0,1.463999987E0,3.667319870E1,-3.710020065E1
7.253521144E0,2.976799965E0,3.581919861E1,-3.808839798E1
7.303521144E0,4.416399956E0,3.552639771E1,-3.878379822E1
7.353521144E0,4.465199947E0,3.531900024E1,-3.896680069E1
7.403521144E0,3.928400040E0,3.558739853E1,-3.874720001E1
7.453521144E0,2.854799986E0,3.624620056E1,-3.814939880E1
7.503521144E0,1.110199928E0,3.700259781E1,-3.739299774E1
7.553521144E0,-3.416000009E-1,3.792979813E1,-3.617300034E1
7.603521144E0,-2.525399923E0,3.880820084E1,-3.490419769E1
7.653521144E0,-4.806799889E0,4.011359787E1,-3.303759766E1
7.703521144E0,-6.600199699E0,4.199239731E1,-3.042679977E1
7.753521144E0,-8.100799561E0,4.370039749E1,-2.786479950E1
7.803521144E0,-9.101200104E0,4.515219879E1,-2.555900002E1
7.853521144E0,-9.698999405E0,4.579879761E1,-2.453419876E1
7.903521144E0,-1.002839947E1,4.555479813E1,-2.485140038E1
7.953521144E0,-1.002839947E1,4.456660080E1,-2.588839912E1
8.003521144E0,-1.005280018E1,4.300500107E1,-2.792580032E1
8.053521144E0,-1.024800014E1,4.090660095E1,-3.051219940E1
8.103521144E0,-1.039439964E1,3.832019806E1,-3.376959991E1
8.153521144E0,-1.010159969E1,3.579479980E1,-3.718560028E1
8.203521144E0,-9.259799957E0,3.365979767E1,-4.015019989E1
8.253521144E0,-7.759199619E0,3.246419907E1,-4.173619843E1
8.303521144E0,-5.465600014E0,3.206159973E1,-4.211439896E1
8.353521144E0,-1.732399940E0,3.256179810E1,-4.172399902E1
8.403521144E0,7.929999828E-1,3.268379974E1,-4.163859940E1
8.453521144E0,2.879199982E0,3.328160095E1,-4.117499924E1
8.503521144E0,4.538399696E0,3.467239761E1,-3.994279861E1
8.553521144E0,5.526599884E0,3.649020004E1,-3.807619858E1
8.603521144E0,5.795000076E0,3.840559769E1,-3.562400055E1
8.653521144E0,4.855599880E0,4.019899750E1,-3.290340042E1
8.703521144E0,2.903599977E0,4.184600067E1,-3.008519936E1
8.753521404E0,7.319999933E-1,4.398099899E1,-2.663259888E1
8.803521404E0,-1.390799999E0,4.623799896E1,-2.236260033E1
8.853521404E0,-2.988999844E0,4.839739990E1,-1.765340042E1
8.903521404E0,-4.306600094E0,5.000779724E1,-1.366399956E1
8.953521404E0,-5.368000031E0,5.115459824E1,-1.123619938E1
9.003521404E0,-6.087800026E0,5.131319809E1,-1.085799980E1
9.053521404E0,-6.014599800E0,5.053239822E1,-1.250500011E1
9.103521039E0,-5.075200081E0,4.899519730E1,-1.545739937E1
9.153521039E0,-3.781999826E0,4.690900040E1,-1.944680023E1
9.203521039E0,-1.805599928E0,4.378580093E1,-2.446100044E1
9.253521039E0,9.027999640E-1,4.043079758E1,-2.991440010E1
9.303521039E0,3.769799948E0,3.761259842E1,-3.461140060E1
9.353521039E0,6.710000038E0,3.517259979E1,-3.795420074E1
9.403521039E0,9.662400246E0,3.287899780E1,-4.032099915E1
9.453521560E0,1.226099968E1,3.119540024E1,-4.149219894E1
9.503521560E0,1.394460011E1,3.028039932E1,-4.198019791E1
9.553521560E0,1.485960007E1,3.079279900E1,-4.128479767E1
9.603521560E0,1.460339928E1,3.247639847E1,-3.966220093E1
9.653521560E0,1.320039940E1,3.509939957E1,-3.701480103E1
9.703521560E0,1.078479958E1,3.749060059E1,-3.414780045E1
9.753521560E0,7.795799732E0,3.961339951E1,-3.080500031E1
9.803521560E0,4.733600140E0,4.232180023E1,-2.708399963E1
9.853521560E0,1.976400018E0,4.515219879E1,-2.271640015E1
9.903521560E0,-4.757999778E-1,4.781179810E1,-1.804380035E1
9.953521560E0,-2.366800070E0,5.042259979E1,-1.427400017E1
1.000352156E1,-3.891799927E0,5.161819839E1,-1.213899994E1
1.005352156E1,-5.062999725E0,5.154499817E1,-1.240740013E1
1.010352156E1,-5.111799717E0,5.052019882E1,-1.440819931E1
1.015352156E1,-4.221199989E0,4.845840073E1,-1.773880005E1
1.020352156E1,-2.830399990E0,4.575000000E1,-2.210639954E1
1.025352156E1,-8.905999660E-1,4.245599747E1,-2.721819878E1
1.030352156E1,1.683599949E0,3.935720062E1,-3.220800018E1
1.035352156E1,4.294399738E0,3.717340088E1,-3.694160080E1
1.040352156E1,7.014999866E0,3.481879807E1,-3.990620041E1
1.045352156E1,9.869799614E0,3.287899780E1,-4.166299820E1
1.050352156E1,1.195599937E1,3.167119980E1,-4.257799911E1
1.055352156E1,1.327359962E1,3.150039864E1,-4.212659836E1
1.060352156E1,1.350539970E1,3.259840012E1,-4.097979736E1
1.065352156E1,1.273680019E1,3.489199829E1,-3.860079956E1
1.070352156E1,1.084579945E1,3.742959976E1,-3.584359741E1
1.075352156E1,8.796199799E0,3.944260025E1,-3.290340042E1
1.080352156E1,6.026799679E0,4.185820007E1,-2.969479942E1
1.085352156E1,3.245199919E0,4.451779938E1,-2.579080009E1
1.090352156E1,9.882000089E-1,4.711639786E1,-2.113039970E1
1.095352156E1,-6.832000017E-1,4.965399933E1,-1.715320015E1
1.100352156E1,-2.134999990E0,5.117900085E1,-1.399339962E1
1.105352156E1,-3.269599915E0,5.158160019E1,-1.332240009E1
1.110352156E1,-3.818599939E0,5.104479980E1,-1.439599991E1
1.115352156E1,-3.171999931E0,4.962960052E1,-1.689699936E1
1.120352156E1,-2.098399878E0,4.748239899E1,-2.037400055E1
1.125352156E1,-3.294000030E-1,4.448119736E1,-2.497340012E1
1.130352156E1,2.037400007E0,4.122380066E1,-3.001199913E1
1.135352156E1,4.513999939E0,3.850320053E1,-3.428199768E1
1.140352156E1,7.088200092E0,3.612419891E1,-3.780780029E1
1.145352156E1,9.845399857E0,3.397700119E1,-3.988179779E1
1.150352156E1,1.239519978E1,3.234220123E1,-4.112619781E1
1.155352156E1,1.426179981E1,3.265940094E1,-4.172399902E1
1.160352156E1,1.494499969E1,3.313520050E1,-4.106520081E1
1.165352156E1,1.448139954E1,3.494079971E1,-3.910099792E1
1.170352156E1,1.304179955E1,3.744179916E1,-3.646579742E1
1.175352156E1,1.060179996E1,3.958900070E1,-3.319619751E1
1.180352156E1,7.844599724E0,4.182159805E1,-3.012179947E1
1.185352156E1,4.867799759E0,4.439579773E1,-2.641300011E1
1.190352156E1,2.244799852E0,4.707979965E1,-2.198439980E1
1.195352156E1,4.391999841E-1,4.933679962E1,-1.738500023E1
1.200352156E1,-1.293200016E0,5.105699921E1,-1.394460011E1
1.205352156E1,-2.647399902E0,5.186219788E1,-1.255379963E1
1.210352156E1,-3.635599852E0,5.160599899E1,-1.323699951E1
1.215352156E1,-3.330600023E0,5.034939957E1,-1.529879951E1
1.220352156E1,-2.464400053E0,4.843399811E1,-1.854399872E1
1.225352156E1,-8.661999702E-1,4.562799835E1,-2.299699974E1
1.230352156E1,1.220000029E0,4.249259949E1,-2.801119995E1
1.235352156E1,3.586799860E0,3.957679749E1,-3.280579758E1
1.240352156E1,6.002399921E0,3.739299774E1,-3.649020004E1
1.245352156E1,8.539999962E0,3.539220047E1,-3.896680069E1
1.250352156E1,1.124839973E1,3.363539886E1,-4.040639877E1
1.255352156E1,1.322480011E1,3.223239899E1,-4.128479767E1
1.260352156E1,1.450579929E1,3.218359756E1,-4.116279984E1
1.265352156E1,1.443260002E1,3.363539886E1,-3.983300018E1
1.270352156E1,1.355420017E1,3.578260040E1,-3.769799805E1
1.275352156E1,1.190719986E1,3.805179977E1,-3.466019821E1
1.280352156E1,9.418399811E0,4.006480026E1,-3.197620010E1
1.285352156E1,6.587999821E0,4.234619904E1,-2.871879959E1
1.290352156E1,3.769799948E0,4.500579834E1,-2.487579918E1
1.295352156E1,1.281000018E0,4.822660065E1,-2.080099869E1
1.300352156E1,-8.051999807E-1,5.044699860E1,-1.650659943E1
1.305352156E1,-2.317999840E0,5.187439728E1,-1.328579998E1
1.310352156E1,-3.696599960E0,5.255759811E1,-1.209019947E1
1.315352156E1,-4.355400085E0,5.213059998E1,-1.294419956E1
1.320352156E1,-3.940599918E0,5.098379898E1,-1.521339989E1
1.325352156E1,-2.927999973E0,4.905619812E1,-1.871479988E1
1.330352156E1,-1.695799947E0,4.640879822E1,-2.320439911E1
1.335352156E1,5.245999694E-1,4.323679733E1,-2.834059906E1
1.340352156E1,2.915799856E0,4.033319855E1,-3.325719833E1
1.345352156E1,5.270400047E0,3.810059738E1,-3.712459946E1
1.350352156E1,7.807999611E0,3.606319809E1,-3.977199936E1
1.355352156E1,1.012599945E1,3.417219925E1,-4.119939804E1
1.360352156E1,1.226099968E1,3.302539825E1,-4.205339813E1
1.365352156E1,1.344439983E1,3.293999863E1,-4.194359970E1
1.370352156E1,1.371280003E1,3.401359940E1,-4.080899811E1
1.375352156E1,1.300519943E1,3.601440048E1,-3.888140106E1
1.380352156E1,1.146799946E1,3.823479843E1,-3.646579742E1
1.385352156E1,9.308599472E0,4.016239929E1,-3.395259857E1
1.390352156E1,6.710000038E0,4.229739761E1,-3.100020027E1
1.395352156E1,4.013800144E0,4.518880081E1,-2.737679863E1
1.400352156E1,1.634799957E0,4.778739929E1,-2.304579926E1
1.405352156E1,-2.195999920E-1,4.997119904E1,-1.881239891E1
1.410352156E1,-1.707999945E0,5.155719757E1,-1.534759998E1
1.415352156E1,-3.074399948E0,5.231359863E1,-1.356639957E1
1.420352156E1,-3.977200031E0,5.214279938E1,-1.404220009E1
1.425352156E1,-3.708799839E0,5.105699921E1,-1.603079987E1
1.430352156E1,-2.842599869E0,4.927579880E1,-1.904419899E1
1.435352156E1,-1.561599970E0,4.665279770E1,-2.324099922E1
1.440352156E1,3.294000030E-1,4.328559875E1,-2.830399895E1
1.445352156E1,2.757200003E0,4.006480026E1,-3.330599976E1
1.450352156E1,5.124000072E0,3.749060059E1,-3.749060059E1
1.455352156E1,7.088200092E0,3.523360062E1,-4.078459930E1
1.460352156E1,9.735599518E0,3.333039856E1,-4.244379807E1
1.465352156E1,1.160219955E1,3.209819794E1,-4.338319778E1
1.470352156E1,1.262699986E1,3.179319954E1,-4.350519943E1
1.475352156E1,1.254160023E1,3.307419968E1,-4.226079941E1
1.480352156E1,1.163879967E1,3.535559845E1,-4.011359787E1
1.485352156E1,9.650199890E0,3.800299835E1,-3.728319931E1
1.490352156E1,7.307799816E0,4.024779892E1,-3.445280075E1
1.495352156E1,4.465199947E0,4.274879837E1,-3.085379982E1
1.500352156E1,1.622599959E0,4.542060089E1,-2.696199989E1
1.505352156E1,-6.953999996E-1,4.808020020E1,-2.232600021E1
1.510352156E1,-2.586400032E0,5.042259979E1,-1.783639908E1
1.515352156E1,-3.903999805E0,5.232579803E1,-1.462779999E1
1.520352156E1,-5.245999813E0,5.302119827E1,-1.328579998E1
1.525352156E1,-5.941400051E0,5.269179916E1,-1.387139988E1
1.530352156E1,-5.685199738E0,5.165480042E1,-1.578679943E1
1.535352156E1,-4.818999767E0,5.004439926E1,-1.892219925E1
1.540352156E1,-3.635599852E0,4.745800018E1,-2.324099922E1
1.545352156E1,-1.939799905E0,4.440800095E1,-2.836499977E1
1.550352156E1,2.317999899E-1,4.168740082E1,-3.318399811E1
1.555352156E1,2.061800003E0,3.949139786E1,-3.685620117E1
1.560352156E1,4.501800060E0,3.747840118E1,-3.946699905E1
1.565352156E1,6.978399754E0,3.579479980E1,-4.115060043E1
1.570352156E1,8.674200058E0,3.464799881E1,-4.211439896E1
1.575352156E1,9.698999405E0,3.452600098E1,-4.200460052E1
1.580352156E1,9.686800003E0,3.570940018E1,-4.077239990E1
1.585352156E1,8.686399460E0,3.788100052E1,-3.846659851E1
1.590352156E1,6.697799683E0,4.007699966E1,-3.573379898E1
1.595352156E1,4.306600094E0,4.188259888E1,-3.283020020E1
1.600352156E1,1.402999997E0,4.407859802E1,-2.941419983E1
1.605352156E1,-1.451799989E0,4.661619949E1,-2.516860008E1
1.610352156E1,-3.794199944E0,4.922699738E1,-2.037400055E1
1.615352156E1,-5.758399963E0,5.095940018E1,-1.562819958E1
1.620352156E1,-7.295599937E0,5.239899826E1,-1.215119934E1
1.625352156E1,-8.527799606E0,5.288699722E1,-1.088239956E1
1.630352156E1,-9.174399376E0,5.247219849E1,-1.159000015E1
1.635352156E1,-8.491199493E0,5.099599838E1,-1.384700012E1
1.640352156E1,-7.551799774E0,4.911719894E1,-1.718980026E1
1.645352156E1,-5.941400051E0,4.625019836E1,-2.192339897E1
1.650352156E1,-3.842999935E0,4.305379868E1,-2.718159866E1
1.655352156E1,-1.512799978E0,4.011359787E1,-3.262279892E1
1.660352156E1,9.271999598E-1,3.774679947E1,-3.679520035E1
1.665352156E1,3.647799969E0,3.555080032E1,-3.974760056E1
1.670352156E1,6.417200089E0,3.379399872E1,-4.156539917E1
1.675352156E1,8.161799431E0,3.278139877E1,-4.234619904E1
1.680352156E1,9.394000053E0,3.278139877E1,-4.224860001E1
1.685352156E1,9.223199844E0,3.424539948E1,-4.086999893E1
1.690352156E1,8.332599640E0,3.641699982E1,-3.864960098E1
1.695352156E1,6.697799683E0,3.812500000E1,-3.552639771E1
1.700352156E1,4.538399696E0,4.016239929E1,-3.259840012E1
1.705352156E1,1.939799905E0,4.249259949E1,-2.910919952E1
1.710352156E1,-5.978000164E-1,4.509119797E1,-2.474160004E1
1.715352156E1,-3.037799835E0,4.773859787E1,-2.011779976E1
1.720352156E1,-4.757999897E0,4.975159836E1,-1.577460003E1
1.725352156E1,-5.977999687E0,5.100819778E1,-1.274899960E1
